#F fresnel_fourier_1D.spec 

#S  1 fresnel diffraction 
#N 3 
#L X[m]  intensity  phase
  -4.00000000000e-04    5.69263376241e-12    5.17070766389e-02 
  -3.99199199199e-04    5.12529678972e-11    5.16978089713e-02 
  -3.98398398398e-04    1.42476454282e-10    5.16792641078e-02 
  -3.97597597598e-04    2.79569097172e-10    5.16514224909e-02 
  -3.96796796797e-04    4.62840824975e-10    5.16142548473e-02 
  -3.95995995996e-04    6.92706602317e-10    5.15677220575e-02 
  -3.95195195195e-04    9.69687922099e-10    5.15117750918e-02 
  -3.94394394394e-04    1.29441468578e-09    5.14463548193e-02 
  -3.93593593594e-04    1.66762748210e-09    5.13713919424e-02 
  -3.92792792793e-04    2.09018027674e-09    5.12868067985e-02 
  -3.91991991992e-04    2.56304352775e-09    5.11925092050e-02 
  -3.91191191191e-04    3.08730774401e-09    5.10883981998e-02 
  -3.90390390390e-04    3.66418750668e-09    5.09743618565e-02 
  -3.89589589590e-04    4.29502597604e-09    5.08502770107e-02 
  -3.88788788789e-04    4.98129990926e-09    5.07160089435e-02 
  -3.87987987988e-04    5.72462521790e-09    5.05714110859e-02 
  -3.87187187187e-04    6.52676309693e-09    5.04163246652e-02 
  -3.86386386386e-04    7.38962676098e-09    5.02505783001e-02 
  -3.85585585586e-04    8.31528882726e-09    5.00739876037e-02 
  -3.84784784785e-04    9.30598938873e-09    4.98863547301e-02 
  -3.83983983984e-04    1.03641448266e-08    4.96874678674e-02 
  -3.83183183183e-04    1.14923574151e-08    4.94771007258e-02 
  -3.82382382382e-04    1.26934257767e-08    4.92550119558e-02 
  -3.81581581582e-04    1.39703562545e-08    4.90209445304e-02 
  -3.80780780781e-04    1.53263752722e-08    4.87746250788e-02 
  -3.79979979980e-04    1.67649427602e-08    4.85157631795e-02 
  -3.79179179179e-04    1.82897667357e-08    4.82440505914e-02 
  -3.78378378378e-04    1.99048191319e-08    4.79591604125e-02 
  -3.77577577578e-04    2.16143529812e-08    4.76607462154e-02 
  -3.76776776777e-04    2.34229210693e-08    4.73484410851e-02 
  -3.75975975976e-04    2.53353961875e-08    4.70218565975e-02 
  -3.75175175175e-04    2.73569931252e-08    4.66805817214e-02 
  -3.74374374374e-04    2.94932925572e-08    4.63241816449e-02 
  -3.73573573574e-04    3.17502669972e-08    4.59521965075e-02 
  -3.72772772773e-04    3.41343090097e-08    4.55641400511e-02 
  -3.71971971972e-04    3.66522618871e-08    4.51594981629e-02 
  -3.71171171171e-04    3.93114530262e-08    4.47377273038e-02 
  -3.70370370370e-04    4.21197302596e-08    4.42982528432e-02 
  -3.69569569570e-04    4.50855014273e-08    4.38404672489e-02 
  -3.68768768769e-04    4.82177775028e-08    4.33637281443e-02 
  -3.67967967968e-04    5.15262196259e-08    4.28673562351e-02 
  -3.67167167167e-04    5.50211904286e-08    4.23506330573e-02 
  -3.66366366366e-04    5.87138100858e-08    4.18127985708e-02 
  -3.65565565566e-04    6.26160175741e-08    4.12530485668e-02 
  -3.64764764765e-04    6.67406376726e-08    4.06705318704e-02 
  -3.63963963964e-04    7.11014543020e-08    4.00643473248e-02 
  -3.63163163163e-04    7.57132908679e-08    3.94335405429e-02 
  -3.62362362362e-04    8.05920983517e-08    3.87771004143e-02 
  -3.61561561562e-04    8.57550519846e-08    3.80939553202e-02 
  -3.60760760761e-04    9.12206574291e-08    3.73829690492e-02 
  -3.59959959960e-04    9.70088675170e-08    3.66429363933e-02 
  -3.59159159159e-04    1.03141210709e-07    3.58725783808e-02 
  -3.58358358358e-04    1.09640932594e-07    3.50705371208e-02 
  -3.57557557558e-04    1.16533151905e-07    3.42353702261e-02 
  -3.56756756757e-04    1.23845032708e-07    3.33655447755e-02 
  -3.55955955956e-04    1.31605974646e-07    3.24594307673e-02 
  -3.55155155155e-04    1.39847823347e-07    3.15152940255e-02 
  -3.54354354354e-04    1.48605103385e-07    3.05312885107e-02 
  -3.53553553554e-04    1.57915276489e-07    2.95054479643e-02 
  -3.52752752753e-04    1.67819028062e-07    2.84356768479e-02 
  -3.51951951952e-04    1.78360585473e-07    2.73197404902e-02 
  -3.51151151151e-04    1.89588072054e-07    2.61552543828e-02 
  -3.50350350350e-04    2.01553901270e-07    2.49396725348e-02 
  -3.49549549550e-04    2.14315216148e-07    2.36702748066e-02 
  -3.48748748749e-04    2.27934379762e-07    2.23441531184e-02 
  -3.47947947948e-04    2.42479523374e-07    2.09581964320e-02 
  -3.47147147147e-04    2.58025159787e-07    1.95090743907e-02 
  -3.46346346346e-04    2.74652870544e-07    1.79932194895e-02 
  -3.45545545546e-04    2.92452076858e-07    1.64068076354e-02 
  -3.44744744745e-04    3.11520905600e-07    1.47457369501e-02 
  -3.43943943944e-04    3.31967163379e-07    1.30056046521e-02 
  -3.43143143143e-04    3.53909433663e-07    1.11816818357e-02 
  -3.42342342342e-04    3.77478314168e-07    9.26888595514e-03 
  -3.41541541542e-04    4.02817814368e-07    7.26175080289e-03 
  -3.40740740741e-04    4.30086936027e-07    5.15439376405e-03 
  -3.39939939940e-04    4.59461463233e-07    2.94048009203e-03 
  -3.39139139139e-04    4.91135992534e-07    6.13183952653e-04 
  -3.38338338338e-04    5.25326238658e-07   -1.83485404125e-03 
  -3.37537537538e-04    5.62271656935e-07   -4.41157310323e-03 
  -3.36736736737e-04    6.02238430153e-07   -7.12554266130e-03 
  -3.35935935936e-04    6.45522875347e-07   -9.98601718437e-03 
  -3.35135135135e-04    6.92455335061e-07   -1.30029957899e-02 
  -3.34334334334e-04    7.43404628272e-07   -1.61872869723e-02 
  -3.33533533534e-04    7.98783148598e-07   -1.95505788046e-02 
  -3.32732732733e-04    8.59052712049e-07   -2.31055149644e-02 
  -3.31931931932e-04    9.24731273704e-07   -2.68657769177e-02 
  -3.31131131131e-04    9.96400652838e-07   -3.08461725862e-02 
  -3.30330330330e-04    1.07471542962e-06   -3.50627317922e-02 
  -3.29529529530e-04    1.16041320423e-06   -3.95328087243e-02 
  -3.28728728729e-04    1.25432644180e-06   -4.42751916119e-02 
  -3.27927927928e-04    1.35739616453e-06   -4.93102197275e-02 
  -3.27127127127e-04    1.47068779742e-06   -5.46599077152e-02 
  -3.26326326326e-04    1.59540952579e-06   -6.03480771329e-02 
  -3.25525525526e-04    1.73293358447e-06   -6.64004949394e-02 
  -3.24724724725e-04    1.88482096959e-06   -7.28450184702e-02 
  -3.23923923924e-04    2.05285014710e-06   -7.97117462299e-02 
  -3.23123123123e-04    2.23905042900e-06   -8.70331735937e-02 
  -3.22322322322e-04    2.44574079995e-06   -9.48443522138e-02 
  -3.21521521522e-04    2.67557510644e-06   -1.03183051626e-01 
  -3.20720720721e-04    2.93159466911e-06   -1.12089921215e-01 
  -3.19919919920e-04    3.21728954906e-06   -1.21608650352e-01 
  -3.19119119119e-04    3.53666989187e-06   -1.31786124125e-01 
  -3.18318318318e-04    3.89434899116e-06   -1.42672571769e-01 
  -3.17517517518e-04    4.29563995706e-06   -1.54321704516e-01 
  -3.16716716717e-04    4.74666814393e-06   -1.66790839316e-01 
  -3.15915915916e-04    5.25450178502e-06   -1.80141004637e-01 
  -3.15115115115e-04    5.82730359486e-06   -1.94437024374e-01 
  -3.14314314314e-04    6.47450642702e-06   -2.09747575885e-01 
  -3.13513513514e-04    7.20701640424e-06   -2.26145218258e-01 
  -3.12712712713e-04    8.03744725237e-06   -2.43706387132e-01 
  -3.11911911912e-04    8.98038984616e-06   -2.62511352870e-01 
  -3.11111111111e-04    1.00527211783e-05   -2.82644139447e-01 
  -3.10310310310e-04    1.12739570477e-05   -3.04192402234e-01 
  -3.09509509510e-04    1.26666526642e-05   -3.27247263824e-01 
  -3.08708708709e-04    1.42568550075e-05   -3.51903108176e-01 
  -3.07907907908e-04    1.60746100451e-05   -3.78257334589e-01 
  -3.07107107107e-04    1.81545266785e-05   -4.06410074361e-01 
  -3.06306306306e-04    2.05363973831e-05   -4.36463874311e-01 
  -3.05505505506e-04    2.32658727255e-05   -4.68523352659e-01 
  -3.04704704705e-04    2.63951830444e-05   -5.02694833976e-01 
  -3.03903903904e-04    2.99838952869e-05   -5.39085970930e-01 
  -3.03103103103e-04    3.40996859729e-05   -5.77805361456e-01 
  -3.02302302302e-04    3.88191021825e-05   -6.18962170519e-01 
  -3.01501501502e-04    4.42282709538e-05   -6.62665766044e-01 
  -3.00700700701e-04    5.04235032122e-05   -7.09025378659e-01 
  -2.99899899900e-04    5.75117210475e-05   -7.58149794758e-01 
  -2.99099099099e-04    6.56106166534e-05   -8.10147092130e-01 
  -2.98298298298e-04    7.48484276168e-05   -8.65124426942e-01 
  -2.97497497497e-04    8.53631868625e-05   -9.23187880463e-01 
  -2.96696696697e-04    9.73012772985e-05   -9.84442373542e-01 
  -2.95895895896e-04    1.10815092556e-04   -1.04899165673e+00 
  -2.95095095095e-04    1.26059578556e-04   -1.11693838407e+00 
  -2.94294294294e-04    1.43187409398e-04   -1.18838427927e+00 
  -2.93493493493e-04    1.62342539964e-04   -1.26343040427e+00 
  -2.92692692693e-04    1.83651882942e-04   -1.34217754234e+00 
  -2.91891891892e-04    2.07214887479e-04   -1.42472671121e+00 
  -2.91091091091e-04    2.33090859709e-04   -1.51117982641e+00 
  -2.90290290290e-04    2.61283972721e-04   -1.60164054167e+00 
  -2.89489489489e-04    2.91726076311e-04   -1.69621530269e+00 
  -2.88688688689e-04    3.24257646055e-04   -1.79501466333e+00 
  -2.87887887888e-04    3.58607515614e-04   -1.89815493099e+00 
  -2.87087087087e-04    3.94372419925e-04   -2.00576023328e+00 
  -2.86286286286e-04    4.30997836918e-04   -2.11796513235e+00 
  -2.85485485485e-04    4.67762136597e-04   -2.23491796369e+00 
  -2.84684684685e-04    5.03766598340e-04   -2.35678514738e+00 
  -2.83883883884e-04    5.37934388974e-04   -2.48375682448e+00 
  -2.83083083083e-04    5.69022030421e-04   -2.61605432673e+00 
  -2.82282282282e-04    5.95647124626e-04   -2.75394022110e+00 
  -2.81481481481e-04    6.16336017435e-04   -2.89773202874e+00 
  -2.80680680681e-04    6.29594524046e-04   -3.04782127533e+00 
  -2.79879879880e-04    6.34003650566e-04    3.07848489535e+00 
  -2.79079079079e-04    6.28340285432e-04    2.91418374302e+00 
  -2.78278278278e-04    6.11720000884e-04    2.74163192199e+00 
  -2.77477477477e-04    5.83755381349e-04    2.55971921819e+00 
  -2.76676676677e-04    5.44718797819e-04    2.36692431983e+00 
  -2.75875875876e-04    4.95693573266e-04    2.16111453497e+00 
  -2.75075075075e-04    4.38692560708e-04    1.93923427415e+00 
  -2.74274274274e-04    3.76719065749e-04    1.69682814189e+00 
  -2.73473473473e-04    3.13742819659e-04    1.42736252812e+00 
  -2.72672672673e-04    2.54564564165e-04    1.12149146794e+00 
  -2.71871871872e-04    2.04548012818e-04    7.67191612630e-01 
  -2.71071071071e-04    1.69208606608e-04    3.53845077726e-01 
  -2.70270270270e-04    1.53665211912e-04   -1.15031245502e-01 
  -2.69469469469e-04    1.61983506155e-04   -6.07724303387e-01 
  -2.68668668669e-04    1.96466826634e-04   -1.07820012475e+00 
  -2.67867867868e-04    2.56978746351e-04   -1.50058504055e+00 
  -2.67067067067e-04    3.40406933698e-04   -1.87567671846e+00 
  -2.66266266266e-04    4.40393791867e-04   -2.21520613764e+00 
  -2.65465465465e-04    5.47458910916e-04   -2.53100184214e+00 
  -2.64664664665e-04    6.49614708798e-04   -2.83211229427e+00 
  -2.63863863864e-04    7.33524921755e-04   -3.12504175727e+00 
  -2.63063063063e-04    7.86174933379e-04    2.86860027621e+00 
  -2.62262262262e-04    7.96918458040e-04    2.57858034704e+00 
  -2.61461461461e-04    7.59649594852e-04    2.28445369787e+00 
  -2.60660660661e-04    6.74743526754e-04    1.98201255442e+00 
  -2.59859859860e-04    5.50340415850e-04    1.66512595473e+00 
  -2.59059059059e-04    4.02545089002e-04    1.32273850540e+00 
  -2.58258258258e-04    2.54205602441e-04    9.30551131776e-01 
  -2.57457457457e-04    1.32129856110e-04    4.23774838770e-01 
  -2.56656656657e-04    6.28927972457e-05   -3.75494611869e-01 
  -2.55855855856e-04    6.77408499418e-05   -1.48370443419e+00 
  -2.55055055055e-04    1.57448509451e-04   -2.27320350409e+00 
  -2.54254254254e-04    3.28234396092e-04   -2.78832531329e+00 
  -2.53453453453e-04    5.59902828978e-04    3.08227654480e+00 
  -2.52652652653e-04    8.17162286351e-04    2.71061843042e+00 
  -2.51851851852e-04    1.05455224076e-03    2.35691690525e+00 
  -2.51051051051e-04    1.22462897252e-03    2.01105002218e+00 
  -2.50250250250e-04    1.28815396604e-03    1.66788533072e+00 
  -2.49449449449e-04    1.22421233625e-03    1.32450813708e+00 
  -2.48648648649e-04    1.03772352153e-03    9.79089119128e-01 
  -2.47847847848e-04    7.61927494467e-04    6.30350769498e-01 
  -2.47047047047e-04    4.54262833696e-04    2.77241016308e-01 
  -2.46246246246e-04    1.85537271083e-04   -8.15463438789e-02 
  -2.45445445445e-04    2.41400757701e-05   -4.51803293712e-01 
  -2.44644644645e-04    1.87742778914e-05    2.34712947716e+00 
  -2.43843843844e-04    1.84221432079e-04    1.96304500002e+00 
  -2.43043043043e-04    4.94505421515e-04    1.57968383813e+00 
  -2.42242242242e-04    8.86292789814e-04    1.18991003464e+00 
  -2.41441441441e-04    1.27268734318e-03    7.92431251221e-01 
  -2.40640640641e-04    1.56443628798e-03    3.86370985474e-01 
  -2.39839839840e-04    1.69296204118e-03   -2.91592095279e-02 
  -2.39039039039e-04    1.62856111046e-03   -4.55199390635e-01 
  -2.38238238238e-04    1.38816677203e-03   -8.93086228406e-01 
  -2.37437437437e-04    1.03013859882e-03   -1.34475228246e+00 
  -2.36636636637e-04    6.37699543478e-04   -1.81360005200e+00 
  -2.35835835836e-04    2.96411247808e-04   -2.30806074682e+00 
  -2.35035035035e-04    7.29656628876e-05   -2.86737024807e+00 
  -2.34234234234e-04    1.72234077060e-06    1.16634330491e+00 
  -2.33433433433e-04    8.21006043999e-05   -4.57787424312e-01 
  -2.32632632633e-04    2.85546100939e-04   -1.05248200580e+00 
  -2.31831831832e-04    5.67324507825e-04   -1.61880672346e+00 
  -2.31031031031e-04    8.77494122849e-04   -2.18653002999e+00 
  -2.30230230230e-04    1.16746420622e-03   -2.75989794009e+00 
  -2.29429429429e-04    1.39234463281e-03    2.94468579442e+00 
  -2.28628628629e-04    1.51253254176e-03    2.36232219518e+00 
  -2.27827827828e-04    1.49851688295e-03    1.77745893589e+00 
  -2.27027027027e-04    1.34008290852e-03    1.19056054807e+00 
  -2.26226226226e-04    1.05649669714e-03    6.01017145900e-01 
  -2.25425425425e-04    7.00892112858e-04    6.85374348304e-03 
  -2.24624624625e-04    3.52751222607e-04   -5.96516935038e-01 
  -2.23823823824e-04    9.76155041393e-05   -1.22567795961e+00 
  -2.23023023023e-04    4.73269661037e-07   -2.84103395955e+00 
  -2.22222222222e-04    8.41841892350e-05    8.14204427979e-01 
  -2.21421421421e-04    3.23159824221e-04    1.48892601798e-01 
  -2.20620620621e-04    6.55157909181e-04   -5.09554683856e-01 
  -2.19819819820e-04    1.00452497928e-03   -1.17907500283e+00 
  -2.19019019019e-04    1.30458651519e-03   -1.86282476685e+00 
  -2.18218218218e-04    1.50908858437e-03   -2.56019455145e+00 
  -2.17417417417e-04    1.59130217058e-03    3.01463451243e+00 
  -2.16616616617e-04    1.53833997579e-03    2.29874865469e+00 
  -2.15815815816e-04    1.35048540191e-03    1.57822226034e+00 
  -2.15015015015e-04    1.04878949886e-03    8.54040946891e-01 
  -2.14214214214e-04    6.83908984312e-04    1.23971438257e-01 
  -2.13413413413e-04    3.34036092731e-04   -6.20774204028e-01 
  -2.12612612613e-04    8.53928553086e-05   -1.42005058153e+00 
  -2.11811811812e-04    1.95933729708e-06    2.33892640314e+00 
  -2.11011011011e-04    1.01399572400e-04    5.05703739603e-01 
  -2.10210210210e-04    3.52039923530e-04   -3.21702280645e-01 
  -2.09409409409e-04    6.91490314326e-04   -1.12597116282e+00 
  -2.08608608609e-04    1.05225424589e-03   -1.93632753305e+00 
  -2.07807807808e-04    1.37668127457e-03   -2.75586769361e+00 
  -2.07007007007e-04    1.61600275735e-03    2.70109967812e+00 
  -2.06206206206e-04    1.72479151406e-03    1.87141256033e+00 
  -2.05405405405e-04    1.66679048303e-03    1.03950885128e+00 
  -2.04604604605e-04    1.43502614557e-03    2.03440977144e-01 
  -2.03803803804e-04    1.07045899340e-03   -6.42282304145e-01 
  -2.03003003003e-04    6.58560852654e-04   -1.50762564480e+00 
  -2.02202202202e-04    2.99492621536e-04   -2.41363833881e+00 
  -2.01401401401e-04    7.07666002040e-05    2.83384982930e+00 
  -2.00600600601e-04    8.09631547112e-06    2.32406928438e-01 
  -1.99799799800e-04    1.12323675588e-04   -1.55356104847e+00 
  -1.98998998999e-04    3.65490305048e-04   -2.58005118172e+00 
  -1.98198198198e-04    7.33938012884e-04    2.74320892922e+00 
  -1.97397397397e-04    1.15715854467e-03    1.80265710730e+00 
  -1.96596596597e-04    1.54452733062e-03    8.68625578802e-01 
  -1.95795795796e-04    1.79921650194e-03   -6.75659424929e-02 
  -1.94994994995e-04    1.85938596348e-03   -1.01356039915e+00 
  -1.94194194194e-04    1.72359054992e-03   -1.97502158683e+00 
  -1.93393393393e-04    1.43934283285e-03   -2.95413200136e+00 
  -1.92592592593e-04    1.07025800010e-03    2.33372352570e+00 
  -1.91791791792e-04    6.76363807132e-04    1.32370905129e+00 
  -1.90990990991e-04    3.20293055585e-04    2.89624908164e-01 
  -1.90190190190e-04    7.55524272689e-05   -8.48144830922e-01 
  -1.89389389389e-04    8.85079915617e-06    2.52816976696e+00 
  -1.88588588589e-04    1.44188384282e-04    7.78703345075e-01 
  -1.87787787788e-04    4.46338513203e-04   -3.29068004837e-01 
  -1.86986986987e-04    8.43442911745e-04   -1.39876837966e+00 
  -1.86186186186e-04    1.26280078741e-03   -2.46909021231e+00 
  -1.85385385385e-04    1.64118928647e-03    2.73972557448e+00 
  -1.84584584585e-04    1.91076408995e-03    1.66383821535e+00 
  -1.83783783784e-04    1.99996753623e-03    5.86313268391e-01 
  -1.82982982983e-04    1.86919361388e-03   -4.97822515806e-01 
  -1.82182182182e-04    1.54667487263e-03   -1.59642743798e+00 
  -1.81381381381e-04    1.11881794983e-03   -2.71677370835e+00 
  -1.80580580581e-04    6.82648584011e-04    2.41905535617e+00 
  -1.79779779780e-04    3.13451776084e-04    1.23175877001e+00 
  -1.78978978979e-04    7.20904895553e-05   -9.90667622424e-02 
  -1.78178178178e-04    1.54542691675e-05   -3.07397164400e+00 
  -1.77377377377e-04    1.72899667794e-04    1.39669762026e+00 
  -1.76576576577e-04    5.13576230397e-04    1.51593762631e-01 
  -1.75775775776e-04    9.55655814378e-04   -1.04593869238e+00 
  -1.74974974975e-04    1.41178693574e-03   -2.24255528856e+00 
  -1.74174174174e-04    1.81247295339e-03    2.83890085250e+00 
  -1.73373373373e-04    2.08849450251e-03    1.63478079884e+00 
  -1.72572572573e-04    2.16517487515e-03    4.28455553687e-01 
  -1.71771771772e-04    2.00455827387e-03   -7.85750397777e-01 
  -1.70970970971e-04    1.64644073338e-03   -2.01617637311e+00 
  -1.70170170170e-04    1.18661389942e-03    3.01455555827e+00 
  -1.69369369369e-04    7.19716901032e-04    1.73713735704e+00 
  -1.68568568569e-04    3.20996619787e-04    4.17802279421e-01 
  -1.67767767768e-04    6.68791461866e-05   -1.09375826975e+00 
  -1.66966966967e-04    2.69082914691e-05    2.06955882120e+00 
  -1.66166166166e-04    2.18118842242e-04    2.60549651988e-01 
  -1.65365365365e-04    5.91728214104e-04   -1.12257291243e+00 
  -1.64564564565e-04    1.07371693147e-03   -2.46184131419e+00 
  -1.63763763764e-04    1.58996954150e-03    2.49137811260e+00 
  -1.62962962963e-04    2.04501046092e-03    1.16617386584e+00 
  -1.62162162162e-04    2.32437138021e-03   -1.59796821308e-01 
  -1.61361361361e-04    2.35717883982e-03   -1.49534354005e+00 
  -1.60560560561e-04    2.15725634692e-03   -2.84626420713e+00 
  -1.59759759760e-04    1.78334269423e-03    2.07166194924e+00 
  -1.58958958959e-04    1.29367693388e-03    6.94296930306e-01 
  -1.58158158158e-04    7.66429920339e-04   -7.04899626111e-01 
  -1.57357357357e-04    3.20150835195e-04   -2.16923296994e+00 
  -1.56556556557e-04    6.38811300009e-05    2.35678618023e+00 
  -1.55755755756e-04    4.42800688583e-05   -7.34290585303e-01 
  -1.54954954955e-04    2.61785574687e-04   -2.65266217674e+00 
  -1.54154154154e-04    6.92398013991e-04    2.09858474261e+00 
  -1.53353353353e-04    1.25903888280e-03    6.34959393273e-01 
  -1.52552552553e-04    1.83051378005e-03   -8.14263745416e-01 
  -1.51751751752e-04    2.29074993686e-03   -2.26862908488e+00 
