#F fresnel_fourier_1D.spec 

#S  1 fresnel diffraction 
#N 3 
#L X[m]  intensity  phase
  -4.00000000000e-04    7.60493976020e-13   -3.08569810589e+00 
  -3.99199199199e-04    6.84575853883e-12   -3.08570003632e+00 
  -3.98398398398e-04    1.90232916597e-11   -3.08570389709e+00 
  -3.97597597598e-04    3.73071139626e-11   -3.08570969043e+00 
  -3.96796796797e-04    6.17182880229e-11   -3.08571741947e+00 
  -3.95995995996e-04    9.22849564005e-11   -3.08572708801e+00 
  -3.95195195195e-04    1.29042392535e-10   -3.08573870098e+00 
  -3.94394394394e-04    1.72033064619e-10   -3.08575226429e+00 
  -3.93593593594e-04    2.21306712649e-10   -3.08576778483e+00 
  -3.92792792793e-04    2.76920438791e-10   -3.08578527044e+00 
  -3.91991991992e-04    3.38938811401e-10   -3.08580473003e+00 
  -3.91191191191e-04    4.07433982946e-10   -3.08582617351e+00 
  -3.90390390390e-04    4.82485822117e-10   -3.08584961185e+00 
  -3.89589589590e-04    5.64182060598e-10   -3.08587505701e+00 
  -3.88788788789e-04    6.52618454759e-10   -3.08590252207e+00 
  -3.87987987988e-04    7.47898962771e-10   -3.08593202115e+00 
  -3.87187187187e-04    8.50135937791e-10   -3.08596356946e+00 
  -3.86386386386e-04    9.59450337590e-10   -3.08599718333e+00 
  -3.85585585586e-04    1.07597195113e-09   -3.08603288023e+00 
  -3.84784784785e-04    1.19983964301e-09   -3.08607067871e+00 
  -3.83983983984e-04    1.33120161631e-09   -3.08611059857e+00 
  -3.83183183183e-04    1.47021569456e-09   -3.08615266074e+00 
  -3.82382382382e-04    1.61704962379e-09   -3.08619688740e+00 
  -3.81581581582e-04    1.77188139534e-09   -3.08624330195e+00 
  -3.80780780781e-04    1.93489959058e-09   -3.08629192905e+00 
  -3.79979979980e-04    2.10630374845e-09   -3.08634279467e+00 
  -3.79179179179e-04    2.28630475695e-09   -3.08639592612e+00 
  -3.78378378378e-04    2.47512526977e-09   -3.08645135203e+00 
  -3.77577577578e-04    2.67300014916e-09   -3.08650910247e+00 
  -3.76776776777e-04    2.88017693668e-09   -3.08656920891e+00 
  -3.75975975976e-04    3.09691635312e-09   -3.08663170429e+00 
  -3.75175175175e-04    3.32349282905e-09   -3.08669662307e+00 
  -3.74374374374e-04    3.56019506782e-09   -3.08676400126e+00 
  -3.73573573574e-04    3.80732664281e-09   -3.08683387645e+00 
  -3.72772772773e-04    4.06520663061e-09   -3.08690628790e+00 
  -3.71971971972e-04    4.33417028245e-09   -3.08698127654e+00 
  -3.71171171171e-04    4.61456973589e-09   -3.08705888507e+00 
  -3.70370370370e-04    4.90677476917e-09   -3.08713915797e+00 
  -3.69569569570e-04    5.21117360075e-09   -3.08722214158e+00 
  -3.68768768769e-04    5.52817373677e-09   -3.08730788417e+00 
  -3.67967967968e-04    5.85820286912e-09   -3.08739643600e+00 
  -3.67167167167e-04    6.20170982724e-09   -3.08748784936e+00 
  -3.66366366366e-04    6.55916558727e-09   -3.08758217868e+00 
  -3.65565565566e-04    6.93106434180e-09   -3.08767948057e+00 
  -3.64764764765e-04    7.31792463404e-09   -3.08777981393e+00 
  -3.63963963964e-04    7.72029056042e-09   -3.08788324000e+00 
  -3.63163163163e-04    8.13873304632e-09   -3.08798982249e+00 
  -3.62362362362e-04    8.57385119920e-09   -3.08809962762e+00 
  -3.61561561562e-04    9.02627374455e-09   -3.08821272425e+00 
  -3.60760760761e-04    9.49666054968e-09   -3.08832918397e+00 
  -3.59959959960e-04    9.98570424156e-09   -3.08844908120e+00 
  -3.59159159159e-04    1.04941319247e-08   -3.08857249331e+00 
  -3.58358358358e-04    1.10227070059e-08   -3.08869950073e+00 
  -3.57557557558e-04    1.15722311329e-08   -3.08883018709e+00 
  -3.56756756757e-04    1.21435462548e-08   -3.08896463932e+00 
  -3.55955955956e-04    1.27375368135e-08   -3.08910294782e+00 
  -3.55155155155e-04    1.33551320733e-08   -3.08924520659e+00 
  -3.54354354354e-04    1.39973085998e-08   -3.08939151334e+00 
  -3.53553553554e-04    1.46650928988e-08   -3.08954196973e+00 
  -3.52752752753e-04    1.53595642255e-08   -3.08969668149e+00 
  -3.51951951952e-04    1.60818575766e-08   -3.08985575858e+00 
  -3.51151151151e-04    1.68331668789e-08   -3.09001931542e+00 
  -3.50350350350e-04    1.76147483880e-08   -3.09018747107e+00 
  -3.49549549550e-04    1.84279243135e-08   -3.09036034941e+00 
  -3.48748748749e-04    1.92740866855e-08   -3.09053807942e+00 
  -3.47947947948e-04    2.01547014834e-08   -3.09072079534e+00 
  -3.47147147147e-04    2.10713130431e-08   -3.09090863700e+00 
  -3.46346346346e-04    2.20255487666e-08   -3.09110174998e+00 
  -3.45545545546e-04    2.30191241552e-08   -3.09130028597e+00 
  -3.44744744745e-04    2.40538481920e-08   -3.09150440302e+00 
  -3.43943943944e-04    2.51316291010e-08   -3.09171426584e+00 
  -3.43143143143e-04    2.62544805110e-08   -3.09193004615e+00 
  -3.42342342342e-04    2.74245280575e-08   -3.09215192299e+00 
  -3.41541541542e-04    2.86440164566e-08   -3.09238008313e+00 
  -3.40740740741e-04    2.99153170887e-08   -3.09261472141e+00 
  -3.39939939940e-04    3.12409361329e-08   -3.09285604119e+00 
  -3.39139139139e-04    3.26235232989e-08   -3.09310425473e+00 
  -3.38338338338e-04    3.40658812013e-08   -3.09335958373e+00 
  -3.37537537538e-04    3.55709754338e-08   -3.09362225973e+00 
  -3.36736736737e-04    3.71419453993e-08   -3.09389252471e+00 
  -3.35935935936e-04    3.87821159604e-08   -3.09417063159e+00 
  -3.35135135135e-04    4.04950099789e-08   -3.09445684482e+00 
  -3.34334334334e-04    4.22843618213e-08   -3.09475144106e+00 
  -3.33533533534e-04    4.41541319148e-08   -3.09505470978e+00 
  -3.32732732733e-04    4.61085224431e-08   -3.09536695399e+00 
  -3.31931931932e-04    4.81519942839e-08   -3.09568849104e+00 
  -3.31131131131e-04    5.02892852975e-08   -3.09601965335e+00 
  -3.30330330330e-04    5.25254300896e-08   -3.09636078933e+00 
  -3.29529529530e-04    5.48657813777e-08   -3.09671226429e+00 
  -3.28728728729e-04    5.73160331112e-08   -3.09707446139e+00 
  -3.27927927928e-04    5.98822455046e-08   -3.09744778273e+00 
  -3.27127127127e-04    6.25708721636e-08   -3.09783265045e+00 
  -3.26326326326e-04    6.53887894989e-08   -3.09822950793e+00 
  -3.25525525526e-04    6.83433286442e-08   -3.09863882110e+00 
  -3.24724724725e-04    7.14423101202e-08   -3.09906107977e+00 
  -3.23923923924e-04    7.46940815101e-08   -3.09949679919e+00 
  -3.23123123123e-04    7.81075584369e-08   -3.09994652154e+00 
  -3.22322322322e-04    8.16922691729e-08   -3.10041081770e+00 
  -3.21521521522e-04    8.54584032398e-08   -3.10089028908e+00 
  -3.20720720721e-04    8.94168644050e-08   -3.10138556954e+00 
  -3.19919919920e-04    9.35793285136e-08   -3.10189732756e+00 
  -3.19119119119e-04    9.79583066617e-08   -3.10242626849e+00 
  -3.18318318318e-04    1.02567214259e-07   -3.10297313700e+00 
  -3.17517517518e-04    1.07420446604e-07   -3.10353871976e+00 
  -3.16716716717e-04    1.12533461653e-07   -3.10412384828e+00 
  -3.15915915916e-04    1.17922870764e-07   -3.10472940200e+00 
  -3.15115115115e-04    1.23606538278e-07   -3.10535631159e+00 
  -3.14314314314e-04    1.29603690897e-07   -3.10600556261e+00 
  -3.13513513514e-04    1.35935037949e-07   -3.10667819940e+00 
  -3.12712712713e-04    1.42622903760e-07   -3.10737532925e+00 
  -3.11911911912e-04    1.49691373511e-07   -3.10809812707e+00 
  -3.11111111111e-04    1.57166454095e-07   -3.10884784029e+00 
  -3.10310310310e-04    1.65076251754e-07   -3.10962579426e+00 
  -3.09509509510e-04    1.73451168419e-07   -3.11043339814e+00 
  -3.08708708709e-04    1.82324119003e-07   -3.11127215125e+00 
  -3.07907907908e-04    1.91730772136e-07   -3.11214364998e+00 
  -3.07107107107e-04    2.01709817192e-07   -3.11304959538e+00 
  -3.06306306306e-04    2.12303260844e-07   -3.11399180133e+00 
  -3.05505505506e-04    2.23556756796e-07   -3.11497220355e+00 
  -3.04704704705e-04    2.35519972878e-07   -3.11599286937e+00 
  -3.03903903904e-04    2.48247000242e-07   -3.11705600837e+00 
  -3.03103103103e-04    2.61796810090e-07   -3.11816398416e+00 
  -3.02302302302e-04    2.76233764126e-07   -3.11931932706e+00 
  -3.01501501502e-04    2.91628185809e-07   -3.12052474814e+00 
  -3.00700700701e-04    3.08057000540e-07   -3.12178315451e+00 
  -2.99899899900e-04    3.25604454089e-07   -3.12309766610e+00 
  -2.99099099099e-04    3.44362919977e-07   -3.12447163412e+00 
  -2.98298298298e-04    3.64433808143e-07   -3.12590866119e+00 
  -2.97497497497e-04    3.85928589087e-07   -3.12741262360e+00 
  -2.96696696697e-04    4.08969949919e-07   -3.12898769561e+00 
  -2.95895895896e-04    4.33693101254e-07   -3.13063837631e+00 
  -2.95095095095e-04    4.60247256942e-07   -3.13236951903e+00 
  -2.94294294294e-04    4.88797312087e-07   -3.13418636375e+00 
  -2.93493493493e-04    5.19525748973e-07   -3.13609457279e+00 
  -2.92692692693e-04    5.52634805295e-07   -3.13810027002e+00 
  -2.91891891892e-04    5.88348944847e-07   -3.14021008410e+00 
  -2.91091091091e-04    6.26917677449e-07    3.14075411118e+00 
  -2.90290290290e-04    6.68618782835e-07    3.13841391577e+00 
  -2.89489489489e-04    7.13762002537e-07    3.13594618887e+00 
  -2.88688688689e-04    7.62693274808e-07    3.13334175676e+00 
  -2.87887887888e-04    8.15799600683e-07    3.13059065031e+00 
  -2.87087087087e-04    8.73514644707e-07    3.12768202828e+00 
  -2.86286286286e-04    9.36325192189e-07    3.12460409318e+00 
  -2.85485485485e-04    1.00477860658e-06    3.12134399895e+00 
  -2.84684684685e-04    1.07949145638e-06    3.11788774975e+00 
  -2.83883883884e-04    1.16115951165e-06    3.11422008925e+00 
  -2.83083083083e-04    1.25056934683e-06    3.11032437974e+00 
  -2.82282282282e-04    1.34861182961e-06    3.10618247030e+00 
  -2.81481481481e-04    1.45629782778e-06    3.10177455350e+00 
  -2.80680680681e-04    1.57477652695e-06    3.09707901000e+00 
  -2.79879879880e-04    1.70535682521e-06    3.09207224065e+00 
  -2.79079079079e-04    1.84953235796e-06    3.08672848563e+00 
  -2.78278278278e-04    2.00901080886e-06    3.08101963063e+00 
  -2.77477477477e-04    2.18574828558e-06    3.07491500001e+00 
  -2.76676676677e-04    2.38198968398e-06    3.06838113745e+00 
  -2.75875875876e-04    2.60031613569e-06    3.06138157479e+00 
  -2.75075075075e-04    2.84370083634e-06    3.05387659023e+00 
  -2.74274274274e-04    3.11557478949e-06    3.04582295762e+00 
  -2.73473473473e-04    3.41990427939e-06    3.03717368919e+00 
  -2.72672672673e-04    3.76128221051e-06    3.02787777464e+00 
  -2.71871871872e-04    4.14503582774e-06    3.01787992028e+00 
  -2.71071071071e-04    4.57735376386e-06    3.00712029267e+00 
  -2.70270270270e-04    5.06543585476e-06    2.99553427207e+00 
  -2.69469469469e-04    5.61766971988e-06    2.98305222155e+00 
  -2.68668668669e-04    6.24383872560e-06    2.96959927852e+00 
  -2.67867867868e-04    6.95536662727e-06    2.95509517587e+00 
  -2.67067067067e-04    7.76560490990e-06    2.93945410035e+00 
  -2.66266266266e-04    8.69016959562e-06    2.92258459589e+00 
  -2.65465465465e-04    9.74733502319e-06    2.90438951941e+00 
  -2.64664664665e-04    1.09584927748e-05    2.88476605617e+00 
  -2.63863863864e-04    1.23486844485e-05    2.86360580062e+00 
  -2.63063063063e-04    1.39472172347e-05    2.84079490739e+00 
  -2.62262262262e-04    1.57883710944e-05    2.81621431528e+00 
  -2.61461461461e-04    1.79122055400e-05    2.78974004465e+00 
  -2.60660660661e-04    2.03654722990e-05    2.76124356637e+00 
  -2.59859859860e-04    2.32026371347e-05    2.73059223734e+00 
  -2.59059059059e-04    2.64870093340e-05    2.69764979502e+00 
  -2.58258258258e-04    3.02919702759e-05    2.66227690038e+00 
  -2.57457457457e-04    3.47022823676e-05    2.62433171601e+00 
  -2.56656656657e-04    3.98154456744e-05    2.58367050423e+00 
  -2.55855855856e-04    4.57430508486e-05    2.54014822770e+00 
  -2.55055055055e-04    5.26120525336e-05    2.49361913429e+00 
  -2.54254254254e-04    6.05658563109e-05    2.44393730720e+00 
  -2.53453453453e-04    6.97650736843e-05    2.39095716099e+00 
  -2.52652652653e-04    8.03877530749e-05    2.33453386507e+00 
  -2.51851851852e-04    9.26288404723e-05    2.27452367631e+00 
  -2.51051051051e-04    1.06698562370e-04    2.21078416371e+00 
  -2.50250250250e-04    1.22819358476e-04    2.14317430830e+00 
  -2.49449449449e-04    1.41220927048e-04    2.07155446174e+00 
  -2.48648648649e-04    1.62132888936e-04    1.99578614617e+00 
  -2.47847847848e-04    1.85774538324e-04    1.91573167610e+00 
  -2.47047047047e-04    2.12341143731e-04    1.83125357918e+00 
  -2.46246246246e-04    2.41986311743e-04    1.74221378670e+00 
  -2.45445445445e-04    2.74800052454e-04    1.64847255534e+00 
  -2.44644644645e-04    3.10782418263e-04    1.54988706842e+00 
  -2.43843843844e-04    3.49812957080e-04    1.44630964515e+00 
  -2.43043043043e-04    3.91616756840e-04    1.33758545934e+00 
  -2.42242242242e-04    4.35728583468e-04    1.22354962950e+00 
  -2.41441441441e-04    4.81457537525e-04    1.10402348644e+00 
  -2.40640640641e-04    5.27855758887e-04    9.78809743449e-01 
  -2.39839839840e-04    5.73695938679e-04    8.47686175314e-01 
  -2.39039039039e-04    6.17463644977e-04    7.10397236215e-01 
  -2.38238238238e-04    6.57371557967e-04    5.66642780467e-01 
  -2.37437437437e-04    6.91403388402e-04    4.16062642043e-01 
  -2.36636636637e-04    7.17395188584e-04    2.58215192910e-01 
  -2.35835835836e-04    7.33160561081e-04    9.25469931565e-02 
  -2.35035035035e-04    7.36663502424e-04   -8.16509720614e-02 
  -2.34234234234e-04    7.26237900868e-04   -2.65307601184e-01 
  -2.33433433433e-04    7.00845793698e-04   -4.59667942424e-01 
  -2.32632632633e-04    6.60357412475e-04   -6.66439701543e-01 
  -2.31831831832e-04    6.05825276006e-04   -8.88018715443e-01 
  -2.31031031031e-04    5.39713207600e-04   -1.12783533021e+00 
  -2.30230230230e-04    4.66030964866e-04   -1.39086898464e+00 
  -2.29429429429e-04    3.90318752624e-04   -1.68432452151e+00 
  -2.28628628629e-04    3.19426450131e-04   -2.01815976470e+00 
  -2.27827827828e-04    2.61043387437e-04   -2.40407507404e+00 
  -2.27027027027e-04    2.22958999201e-04   -2.84930827911e+00 
  -2.26226226226e-04    2.12074313275e-04    2.94061317453e+00 
  -2.25425425425e-04    2.33238023242e-04    2.43665724751e+00 
  -2.24624624625e-04    2.88044005469e-04    1.96265887092e+00 
  -2.23823823824e-04    3.73789911417e-04    1.53500476667e+00 
  -2.23023023023e-04    4.82844251530e-04    1.14855652251e+00 
  -2.22222222222e-04    6.02683719332e-04    7.91376277199e-01 
  -2.21421421421e-04    7.16824040245e-04    4.52426285665e-01 
  -2.20620620621e-04    8.06761080950e-04    1.23125116025e-01 
  -2.19819819820e-04    8.54859642053e-04   -2.03224567632e-01 
  -2.19019019019e-04    8.47888244790e-04   -5.32461210551e-01 
  -2.18218218218e-04    7.80635414655e-04   -8.70782280250e-01 
  -2.17417417417e-04    6.58816886034e-04   -1.22655300780e+00 
  -2.16616616617e-04    5.00372488303e-04   -1.61391323659e+00 
  -2.15815815816e-04    3.34337758060e-04   -2.06149702230e+00 
  -2.15015015015e-04    1.96818241900e-04   -2.63356296741e+00 
  -2.14214214214e-04    1.24201495683e-04    2.84352837072e+00 
  -2.13413413413e-04    1.44540149658e-04    1.89636746420e+00 
  -2.12612612613e-04    2.68861903164e-04    1.15252779509e+00 
  -2.11811811812e-04    4.84760202595e-04    6.04826961511e-01 
  -2.11011011011e-04    7.54711711551e-04    1.49931511081e-01 
  -2.10210210210e-04    1.02092625161e-03   -2.63364460135e-01 
  -2.09409409409e-04    1.21709537467e-03   -6.57935356920e-01 
  -2.08608608609e-04    1.28535799740e-03   -1.04534891826e+00 
  -2.07807807808e-04    1.19463364366e-03   -1.43282420532e+00 
  -2.07007007007e-04    9.54910220970e-04   -1.82681514023e+00 
  -2.06206206206e-04    6.21889807388e-04   -2.23719245350e+00 
  -2.05405405405e-04    2.88131790629e-04   -2.69134569838e+00 
  -2.04604604605e-04    6.04768955611e-05    2.93079331132e+00 
  -2.03803803804e-04    2.83169163736e-05    6.50414728469e-01 
  -2.03003003003e-04    2.31696457595e-04   -2.64526766559e-01 
  -2.02202202202e-04    6.40442539745e-04   -7.65691190716e-01 
  -2.01401401401e-04    1.15398388023e-03   -1.21286978219e+00 
  -2.00600600601e-04    1.62581913564e-03   -1.64735722239e+00 
  -1.99799799800e-04    1.90796550831e-03   -2.08021735433e+00 
  -1.98998998999e-04    1.90204921854e-03   -2.51571248590e+00 
  -1.98198198198e-04    1.59868459026e-03   -2.95570473834e+00 
  -1.97397397397e-04    1.08844146785e-03    2.88266535902e+00 
  -1.96596596597e-04    5.36714636308e-04    2.43564340243e+00 
  -1.95795795796e-04    1.28598745451e-04    2.00646659129e+00 
  -1.94994994995e-04    3.02465517058e-06   -2.20229695689e+00 
  -1.94194194194e-04    2.01742903639e-04   -2.23939541640e+00 
  -1.93393393393e-04    6.54293579478e-04   -2.71603800774e+00 
  -1.92592592593e-04    1.20568133898e-03    3.05799437698e+00 
  -1.91791791792e-04    1.67509673118e-03    2.52768112526e+00 
  -1.90990990991e-04    1.92051684287e-03    1.97723599774e+00 
  -1.90190190190e-04    1.88249979247e-03    1.40566125012e+00 
  -1.89389389389e-04    1.59205248163e-03    8.11134103623e-01 
  -1.88588588589e-04    1.14582220012e-03    1.90723994463e-01 
  -1.87787787788e-04    6.66509819215e-04   -4.62378135755e-01 
  -1.86986986987e-04    2.68895091611e-04   -1.17423009644e+00 
  -1.86186186186e-04    4.16574714073e-05   -2.15610060060e+00 
  -1.85385385385e-04    4.05644350724e-05    1.40319351330e+00 
  -1.84584584585e-04    2.81260337635e-04    3.95376577632e-01 
  -1.83783783784e-04    7.26040297636e-04   -3.45913937144e-01 
  -1.82982982983e-04    1.27360476193e-03   -1.04523291761e+00 
  -1.82182182182e-04    1.77024084033e-03   -1.73274712226e+00 
  -1.81381381381e-04    2.05357032005e-03   -2.41887445646e+00 
  -1.80580580581e-04    2.01740728863e-03   -3.11022974512e+00 
  -1.79779779780e-04    1.66460089639e-03    2.47006520959e+00 
  -1.78978978979e-04    1.11358691946e-03    1.74750000865e+00 
  -1.78178178178e-04    5.49603346615e-04    9.89631214221e-01 
  -1.77377377377e-04    1.47076655145e-04    1.35625499670e-01 
  -1.76576576577e-04    7.94908024710e-06   -2.01569677864e+00 
  -1.75775775776e-04    1.45700475405e-04    2.20656914913e+00 
  -1.74974974975e-04    5.08424076291e-04    1.29914304194e+00 
  -1.74174174174e-04    1.00848468703e-03    4.53246136977e-01 
  -1.73373373373e-04    1.53432280534e-03   -3.80214859932e-01 
  -1.72572572573e-04    1.95244553204e-03   -1.20889749379e+00 
  -1.71771771772e-04    2.12879889280e-03   -2.03607526494e+00 
  -1.70970970971e-04    1.98188244830e-03   -2.86635296650e+00 
  -1.70170170170e-04    1.53862744533e-03    2.57611747917e+00 
  -1.69369369369e-04    9.43026956950e-04    1.71287249626e+00 
  -1.68568568569e-04    3.96727696413e-04    7.99333287570e-01 
  -1.67767767768e-04    6.79793513011e-05   -3.20014898638e-01 
  -1.66966966967e-04    3.28630838825e-05    2.94957604680e+00 
  -1.66166166166e-04    2.78943839505e-04    1.62096031831e+00 
  -1.65365365365e-04    7.41014449279e-04    6.15506231587e-01 
  -1.64564564565e-04    1.31889832777e-03   -3.49983866645e-01 
  -1.63763763764e-04    1.87053583285e-03   -1.30247628806e+00 
  -1.62962962963e-04    2.22456277101e-03   -2.25055864283e+00 
  -1.62162162162e-04    2.24506881496e-03    3.08087846239e+00 
  -1.61361361361e-04    1.91285681803e-03    2.11571543812e+00 
  -1.60560560561e-04    1.34717470752e-03    1.12570069089e+00 
  -1.59759759760e-04    7.40282406006e-04    9.53332994151e-02 
  -1.58958958959e-04    2.64461696441e-04   -1.01747379704e+00 
  -1.58158158158e-04    2.96165308724e-05   -2.62183150050e+00 
  -1.57357357357e-04    9.48002587480e-05    7.39090816048e-01 
  -1.56556556557e-04    4.69644414127e-04   -5.31778525736e-01 
  -1.55755755756e-04    1.07672981086e-03   -1.62912364181e+00 
  -1.54954954955e-04    1.73386743579e-03   -2.69579027507e+00 
  -1.54154154154e-04    2.22067808844e-03    2.52040165448e+00 
  -1.53353353353e-04    2.39208721728e-03    1.43910246261e+00 
  -1.52552552553e-04    2.23170950350e-03    3.38099460985e-01 
  -1.51751751752e-04    1.80954448710e-03   -7.81200371967e-01 
